 # Detector n:            1   PFLUXCE1  
 # N. of energy intervals        1000
  9.9999998E-15  1.0281143E-14   0.000000       0.000000    
  1.0281143E-14  1.0570189E-14   0.000000       0.000000    
  1.0570189E-14  1.0867363E-14   0.000000       0.000000    
  1.0867363E-14  1.1172891E-14   0.000000       0.000000    
  1.1172891E-14  1.1487009E-14   0.000000       0.000000    
  1.1487009E-14  1.1809959E-14   0.000000       0.000000    
  1.1809959E-14  1.2141987E-14   0.000000       0.000000    
  1.2141987E-14  1.2483351E-14   0.000000       0.000000    
  1.2483351E-14  1.2834312E-14   0.000000       0.000000    
  1.2834312E-14  1.3195139E-14   0.000000       0.000000    
  1.3195139E-14  1.3566111E-14   0.000000       0.000000    
  1.3566111E-14  1.3947513E-14   0.000000       0.000000    
  1.3947513E-14  1.4339638E-14   0.000000       0.000000    
  1.4339638E-14  1.4742786E-14   0.000000       0.000000    
  1.4742786E-14  1.5157268E-14   0.000000       0.000000    
  1.5157268E-14  1.5583406E-14   0.000000       0.000000    
  1.5583406E-14  1.6021521E-14   0.000000       0.000000    
  1.6021521E-14  1.6471955E-14   0.000000       0.000000    
  1.6471955E-14  1.6935053E-14   0.000000       0.000000    
  1.6935053E-14  1.7411171E-14   0.000000       0.000000    
  1.7411171E-14  1.7900673E-14   0.000000       0.000000    
  1.7900673E-14  1.8403939E-14   0.000000       0.000000    
  1.8403939E-14  1.8921351E-14   0.000000       0.000000    
  1.8921351E-14  1.9453311E-14   0.000000       0.000000    
  1.9453311E-14  2.0000228E-14   0.000000       0.000000    
  2.0000228E-14  2.0562519E-14   0.000000       0.000000    
  2.0562519E-14  2.1140621E-14   0.000000       0.000000    
  2.1140621E-14  2.1734974E-14   0.000000       0.000000    
  2.1734974E-14  2.2346039E-14   0.000000       0.000000    
  2.2346039E-14  2.2974283E-14   0.000000       0.000000    
  2.2974283E-14  2.3620188E-14   0.000000       0.000000    
  2.3620188E-14  2.4284253E-14   0.000000       0.000000    
  2.4284253E-14  2.4966987E-14   0.000000       0.000000    
  2.4966987E-14  2.5668917E-14   0.000000       0.000000    
  2.5668917E-14  2.6390579E-14   0.000000       0.000000    
  2.6390579E-14  2.7132532E-14   0.000000       0.000000    
  2.7132532E-14  2.7895345E-14   0.000000       0.000000    
  2.7895345E-14  2.8679604E-14   0.000000       0.000000    
  2.8679604E-14  2.9485908E-14   0.000000       0.000000    
  2.9485908E-14  3.0314886E-14   0.000000       0.000000    
  3.0314886E-14  3.1167167E-14   0.000000       0.000000    
  3.1167167E-14  3.2043409E-14   0.000000       0.000000    
  3.2043409E-14  3.2944286E-14   0.000000       0.000000    
  3.2944286E-14  3.3870493E-14   0.000000       0.000000    
  3.3870493E-14  3.4822737E-14   0.000000       0.000000    
  3.4822737E-14  3.5801755E-14   0.000000       0.000000    
  3.5801755E-14  3.6808294E-14   0.000000       0.000000    
  3.6808294E-14  3.7843135E-14   0.000000       0.000000    
  3.7843135E-14  3.8907069E-14   0.000000       0.000000    
  3.8907069E-14  4.0000914E-14   0.000000       0.000000    
  4.0000914E-14  4.1125513E-14   0.000000       0.000000    
  4.1125513E-14  4.2281726E-14   0.000000       0.000000    
  4.2281726E-14  4.3470449E-14   0.000000       0.000000    
  4.3470449E-14  4.4692592E-14   0.000000       0.000000    
  4.4692592E-14  4.5949088E-14   0.000000       0.000000    
  4.5949088E-14  4.7240915E-14   0.000000       0.000000    
  4.7240915E-14  4.8569062E-14   0.000000       0.000000    
  4.8569062E-14  4.9934544E-14   0.000000       0.000000    
  4.9934544E-14  5.1338420E-14   0.000000       0.000000    
  5.1338420E-14  5.2781764E-14   0.000000       0.000000    
  5.2781764E-14  5.4265684E-14   0.000000       0.000000    
  5.4265684E-14  5.5791329E-14   0.000000       0.000000    
  5.5791329E-14  5.7359858E-14   0.000000       0.000000    
  5.7359858E-14  5.8972494E-14   0.000000       0.000000    
  5.8972494E-14  6.0630469E-14   0.000000       0.000000    
  6.0630469E-14  6.2335045E-14   0.000000       0.000000    
  6.2335045E-14  6.4087550E-14   0.000000       0.000000    
  6.4087550E-14  6.5889331E-14   0.000000       0.000000    
  6.5889331E-14  6.7741758E-14   0.000000       0.000000    
  6.7741758E-14  6.9646274E-14   0.000000       0.000000    
  6.9646274E-14  7.1604330E-14   0.000000       0.000000    
  7.1604330E-14  7.3617436E-14   0.000000       0.000000    
  7.3617436E-14  7.5687137E-14   0.000000       0.000000    
  7.5687137E-14  7.7815033E-14   0.000000       0.000000    
  7.7815033E-14  8.0002743E-14   0.000000       0.000000    
  8.0002743E-14  8.2251968E-14   0.000000       0.000000    
  8.2251968E-14  8.4564429E-14   0.000000       0.000000    
  8.4564429E-14  8.6941901E-14   0.000000       0.000000    
  8.6941901E-14  8.9386201E-14   0.000000       0.000000    
  8.9386201E-14  9.1899233E-14   0.000000       0.000000    
  9.1899233E-14  9.4482914E-14   0.000000       0.000000    
  9.4482914E-14  9.7139236E-14   0.000000       0.000000    
  9.7139236E-14  9.9870233E-14   0.000000       0.000000    
  9.9870233E-14  1.0267801E-13   0.000000       0.000000    
  1.0267801E-13  1.0556473E-13   0.000000       0.000000    
  1.0556473E-13  1.0853262E-13   0.000000       0.000000    
  1.0853262E-13  1.1158393E-13   0.000000       0.000000    
  1.1158393E-13  1.1472104E-13   0.000000       0.000000    
  1.1472104E-13  1.1794634E-13   0.000000       0.000000    
  1.1794634E-13  1.2126231E-13   0.000000       0.000000    
  1.2126231E-13  1.2467151E-13   0.000000       0.000000    
  1.2467151E-13  1.2817658E-13   0.000000       0.000000    
  1.2817658E-13  1.3178017E-13   0.000000       0.000000    
  1.3178017E-13  1.3548509E-13   0.000000       0.000000    
  1.3548509E-13  1.3929415E-13   0.000000       0.000000    
  1.3929415E-13  1.4321030E-13   0.000000       0.000000    
  1.4321030E-13  1.4723657E-13   0.000000       0.000000    
  1.4723657E-13  1.5137601E-13   0.000000       0.000000    
  1.5137601E-13  1.5563183E-13   0.000000       0.000000    
  1.5563183E-13  1.6000732E-13   0.000000       0.000000    
  1.6000732E-13  1.6450582E-13   0.000000       0.000000    
  1.6450582E-13  1.6913078E-13   0.000000       0.000000    
  1.6913078E-13  1.7388577E-13   0.000000       0.000000    
  1.7388577E-13  1.7877445E-13   0.000000       0.000000    
  1.7877445E-13  1.8380058E-13   0.000000       0.000000    
  1.8380058E-13  1.8896798E-13   0.000000       0.000000    
  1.8896798E-13  1.9428069E-13   0.000000       0.000000    
  1.9428069E-13  1.9974276E-13   0.000000       0.000000    
  1.9974276E-13  2.0535838E-13   0.000000       0.000000    
  2.0535838E-13  2.1113189E-13   0.000000       0.000000    
  2.1113189E-13  2.1706770E-13   0.000000       0.000000    
  2.1706770E-13  2.2317043E-13   0.000000       0.000000    
  2.2317043E-13  2.2944472E-13   0.000000       0.000000    
  2.2944472E-13  2.3589537E-13   0.000000       0.000000    
  2.3589537E-13  2.4252741E-13   0.000000       0.000000    
  2.4252741E-13  2.4934590E-13   0.000000       0.000000    
  2.4934590E-13  2.5635608E-13   0.000000       0.000000    
  2.5635608E-13  2.6356337E-13   0.000000       0.000000    
  2.6356337E-13  2.7097324E-13   0.000000       0.000000    
  2.7097324E-13  2.7859147E-13   0.000000       0.000000    
  2.7859147E-13  2.8642388E-13   0.000000       0.000000    
  2.8642388E-13  2.9447647E-13   0.000000       0.000000    
  2.9447647E-13  3.0275549E-13   0.000000       0.000000    
  3.0275549E-13  3.1126723E-13   0.000000       0.000000    
  3.1126723E-13  3.2001832E-13   0.000000       0.000000    
  3.2001832E-13  3.2901538E-13   0.000000       0.000000    
  3.2901538E-13  3.3826541E-13   0.000000       0.000000    
  3.3826541E-13  3.4777552E-13   0.000000       0.000000    
  3.4777552E-13  3.5755302E-13   0.000000       0.000000    
  3.5755302E-13  3.6760536E-13   0.000000       0.000000    
  3.6760536E-13  3.7794027E-13   0.000000       0.000000    
  3.7794027E-13  3.8856581E-13   0.000000       0.000000    
  3.8856581E-13  3.9949009E-13   0.000000       0.000000    
  3.9949009E-13  4.1072151E-13   0.000000       0.000000    
  4.1072151E-13  4.2226858E-13   0.000000       0.000000    
  4.2226858E-13  4.3414044E-13   0.000000       0.000000    
  4.3414044E-13  4.4634598E-13   0.000000       0.000000    
  4.4634598E-13  4.5889464E-13   0.000000       0.000000    
  4.5889464E-13  4.7179616E-13   0.000000       0.000000    
  4.7179616E-13  4.8506040E-13   0.000000       0.000000    
  4.8506040E-13  4.9869749E-13   0.000000       0.000000    
  4.9869749E-13  5.1271801E-13   0.000000       0.000000    
  5.1271801E-13  5.2713275E-13   0.000000       0.000000    
  5.2713275E-13  5.4195271E-13   0.000000       0.000000    
  5.4195271E-13  5.5718933E-13   0.000000       0.000000    
  5.5718933E-13  5.7285432E-13   0.000000       0.000000    
  5.7285432E-13  5.8895971E-13   0.000000       0.000000    
  5.8895971E-13  6.0551786E-13   0.000000       0.000000    
  6.0551786E-13  6.2254162E-13   0.000000       0.000000    
  6.2254162E-13  6.4004395E-13   0.000000       0.000000    
  6.4004395E-13  6.5803824E-13   0.000000       0.000000    
  6.5803824E-13  6.7653863E-13   0.000000       0.000000    
  6.7653863E-13  6.9555901E-13   0.000000       0.000000    
  6.9555901E-13  7.1511411E-13   0.000000       0.000000    
  7.1511411E-13  7.3521901E-13   0.000000       0.000000    
  7.3521901E-13  7.5588917E-13   0.000000       0.000000    
  7.5588917E-13  7.7714056E-13   0.000000       0.000000    
  7.7714056E-13  7.9898940E-13   0.000000       0.000000    
  7.9898940E-13  8.2145234E-13   0.000000       0.000000    
  8.2145234E-13  8.4454687E-13   0.000000       0.000000    
  8.4454687E-13  8.6829079E-13   0.000000       0.000000    
  8.6829079E-13  8.9270209E-13   0.000000       0.000000    
  8.9270209E-13  9.1779969E-13   0.000000       0.000000    
  9.1779969E-13  9.4360316E-13   0.000000       0.000000    
  9.4360316E-13  9.7013185E-13   0.000000       0.000000    
  9.7013185E-13  9.9740648E-13   0.000000       0.000000    
  9.9740648E-13  1.0254478E-12   0.000000       0.000000    
  1.0254478E-12  1.0542775E-12   0.000000       0.000000    
  1.0542775E-12  1.0839178E-12   0.000000       0.000000    
  1.0839178E-12  1.1143913E-12   0.000000       0.000000    
  1.1143913E-12  1.1457218E-12   0.000000       0.000000    
  1.1457218E-12  1.1779330E-12   0.000000       0.000000    
  1.1779330E-12  1.2110496E-12   0.000000       0.000000    
  1.2110496E-12  1.2450974E-12   0.000000       0.000000    
  1.2450974E-12  1.2801023E-12   0.000000       0.000000    
  1.2801023E-12  1.3160918E-12   0.000000       0.000000    
  1.3160918E-12  1.3530927E-12   0.000000       0.000000    
  1.3530927E-12  1.3911341E-12   0.000000       0.000000    
  1.3911341E-12  1.4302447E-12   0.000000       0.000000    
  1.4302447E-12  1.4704549E-12   0.000000       0.000000    
  1.4704549E-12  1.5117959E-12   0.000000       0.000000    
  1.5117959E-12  1.5542990E-12   0.000000       0.000000    
  1.5542990E-12  1.5979968E-12   0.000000       0.000000    
  1.5979968E-12  1.6429234E-12   0.000000       0.000000    
  1.6429234E-12  1.6891132E-12   0.000000       0.000000    
  1.6891132E-12  1.7366012E-12   0.000000       0.000000    
  1.7366012E-12  1.7854247E-12   0.000000       0.000000    
  1.7854247E-12  1.8356206E-12   0.000000       0.000000    
  1.8356206E-12  1.8872278E-12   0.000000       0.000000    
  1.8872278E-12  1.9402858E-12   0.000000       0.000000    
  1.9402858E-12  1.9948357E-12   0.000000       0.000000    
  1.9948357E-12  2.0509191E-12   0.000000       0.000000    
  2.0509191E-12  2.1085794E-12   0.000000       0.000000    
  2.1085794E-12  2.1678603E-12   0.000000       0.000000    
  2.1678603E-12  2.2288083E-12   0.000000       0.000000    
  2.2288083E-12  2.2914697E-12   0.000000       0.000000    
  2.2914697E-12  2.3558928E-12   0.000000       0.000000    
  2.3558928E-12  2.4221270E-12   0.000000       0.000000    
  2.4221270E-12  2.4902233E-12   0.000000       0.000000    
  2.4902233E-12  2.5602344E-12   0.000000       0.000000    
  2.5602344E-12  2.6322137E-12   0.000000       0.000000    
  2.6322137E-12  2.7062163E-12   0.000000       0.000000    
  2.7062163E-12  2.7822998E-12   0.000000       0.000000    
  2.7822998E-12  2.8605221E-12   0.000000       0.000000    
  2.8605221E-12  2.9409439E-12   0.000000       0.000000    
  2.9409439E-12  3.0236267E-12   0.000000       0.000000    
  3.0236267E-12  3.1086334E-12   0.000000       0.000000    
  3.1086334E-12  3.1960305E-12   0.000000       0.000000    
  3.1960305E-12  3.2858846E-12   0.000000       0.000000    
  3.2858846E-12  3.3782651E-12   0.000000       0.000000    
  3.3782651E-12  3.4732425E-12   0.000000       0.000000    
  3.4732425E-12  3.5708901E-12   0.000000       0.000000    
  3.5708901E-12  3.6712833E-12   0.000000       0.000000    
  3.6712833E-12  3.7744989E-12   0.000000       0.000000    
  3.7744989E-12  3.8806159E-12   0.000000       0.000000    
  3.8806159E-12  3.9897170E-12   0.000000       0.000000    
  3.9897170E-12  4.1018855E-12   0.000000       0.000000    
  4.1018855E-12  4.2172064E-12   0.000000       0.000000    
  4.2172064E-12  4.3357700E-12   0.000000       0.000000    
  4.3357700E-12  4.4576673E-12   0.000000       0.000000    
  4.4576673E-12  4.5829920E-12   0.000000       0.000000    
  4.5829920E-12  4.7118399E-12   0.000000       0.000000    
  4.7118399E-12  4.8443094E-12   0.000000       0.000000    
  4.8443094E-12  4.9805039E-12   0.000000       0.000000    
  4.9805039E-12  5.1205273E-12   0.000000       0.000000    
  5.1205273E-12  5.2644872E-12   0.000000       0.000000    
  5.2644872E-12  5.4124942E-12   0.000000       0.000000    
  5.4124942E-12  5.5646629E-12   0.000000       0.000000    
  5.5646629E-12  5.7211102E-12   0.000000       0.000000    
  5.7211102E-12  5.8819546E-12   0.000000       0.000000    
  5.8819546E-12  6.0473215E-12   0.000000       0.000000    
  6.0473215E-12  6.2173383E-12   0.000000       0.000000    
  6.2173383E-12  6.3921342E-12   0.000000       0.000000    
  6.3921342E-12  6.5718442E-12   0.000000       0.000000    
  6.5718442E-12  6.7566074E-12   0.000000       0.000000    
  6.7566074E-12  6.9465644E-12   0.000000       0.000000    
  6.9465644E-12  7.1418622E-12   0.000000       0.000000    
  7.1418622E-12  7.3426508E-12   0.000000       0.000000    
  7.3426508E-12  7.5490829E-12   0.000000       0.000000    
  7.5490829E-12  7.7613211E-12   0.000000       0.000000    
  7.7613211E-12  7.9795259E-12   0.000000       0.000000    
  7.9795259E-12  8.2038638E-12   0.000000       0.000000    
  8.2038638E-12  8.4345100E-12   0.000000       0.000000    
  8.4345100E-12  8.6716407E-12   0.000000       0.000000    
  8.6716407E-12  8.9154378E-12   0.000000       0.000000    
  8.9154378E-12  9.1660889E-12   0.000000       0.000000    
  9.1660889E-12  9.4237864E-12   0.000000       0.000000    
  9.4237864E-12  9.6887299E-12   0.000000       0.000000    
  9.6887299E-12  9.9611222E-12   0.000000       0.000000    
  9.9611222E-12  1.0241171E-11   0.000000       0.000000    
  1.0241171E-11  1.0529095E-11   0.000000       0.000000    
  1.0529095E-11  1.0825113E-11   0.000000       0.000000    
  1.0825113E-11  1.1129454E-11   0.000000       0.000000    
  1.1129454E-11  1.1442350E-11   0.000000       0.000000    
  1.1442350E-11  1.1764044E-11   0.000000       0.000000    
  1.1764044E-11  1.2094783E-11   0.000000       0.000000    
  1.2094783E-11  1.2434819E-11   0.000000       0.000000    
  1.2434819E-11  1.2784415E-11   0.000000       0.000000    
  1.2784415E-11  1.3143838E-11   0.000000       0.000000    
  1.3143838E-11  1.3513370E-11   0.000000       0.000000    
  1.3513370E-11  1.3893288E-11   0.000000       0.000000    
  1.3893288E-11  1.4283889E-11   0.000000       0.000000    
  1.4283889E-11  1.4685470E-11   0.000000       0.000000    
  1.4685470E-11  1.5098343E-11   0.000000       0.000000    
  1.5098343E-11  1.5522821E-11   0.000000       0.000000    
  1.5522821E-11  1.5959234E-11   0.000000       0.000000    
  1.5959234E-11  1.6407917E-11   0.000000       0.000000    
  1.6407917E-11  1.6869214E-11   0.000000       0.000000    
  1.6869214E-11  1.7343479E-11   0.000000       0.000000    
  1.7343479E-11  1.7831080E-11   0.000000       0.000000    
  1.7831080E-11  1.8332388E-11   0.000000       0.000000    
  1.8332388E-11  1.8847790E-11   0.000000       0.000000    
  1.8847790E-11  1.9377683E-11   0.000000       0.000000    
  1.9377683E-11  1.9922473E-11   0.000000       0.000000    
  1.9922473E-11  2.0482577E-11   0.000000       0.000000    
  2.0482577E-11  2.1058433E-11   0.000000       0.000000    
  2.1058433E-11  2.1650477E-11   0.000000       0.000000    
  2.1650477E-11  2.2259165E-11   0.000000       0.000000    
  2.2259165E-11  2.2884961E-11   0.000000       0.000000    
  2.2884961E-11  2.3528360E-11   0.000000       0.000000    
  2.3528360E-11  2.4189841E-11   0.000000       0.000000    
  2.4189841E-11  2.4869922E-11   0.000000       0.000000    
  2.4869922E-11  2.5569121E-11   0.000000       0.000000    
  2.5569121E-11  2.6287979E-11   0.000000       0.000000    
  2.6287979E-11  2.7027047E-11   0.000000       0.000000    
  2.7027047E-11  2.7786896E-11   0.000000       0.000000    
  2.7786896E-11  2.8568104E-11   0.000000       0.000000    
  2.8568104E-11  2.9371276E-11   0.000000       0.000000    
  2.9371276E-11  3.0197032E-11   0.000000       0.000000    
  3.0197032E-11  3.1045996E-11   0.000000       0.000000    
  3.1045996E-11  3.1918829E-11   0.000000       0.000000    
  3.1918829E-11  3.2816208E-11   0.000000       0.000000    
  3.2816208E-11  3.3738814E-11   0.000000       0.000000    
  3.3738814E-11  3.4687357E-11   0.000000       0.000000    
  3.4687357E-11  3.5662567E-11   0.000000       0.000000    
  3.5662567E-11  3.6665199E-11   0.000000       0.000000    
  3.6665199E-11  3.7696013E-11   0.000000       0.000000    
  3.7696013E-11  3.8755808E-11   0.000000       0.000000    
  3.8755808E-11  3.9845401E-11   0.000000       0.000000    
  3.9845401E-11  4.0965623E-11   0.000000       0.000000    
  4.0965623E-11  4.2117344E-11   0.000000       0.000000    
  4.2117344E-11  4.3301446E-11   0.000000       0.000000    
  4.3301446E-11  4.4518833E-11   0.000000       0.000000    
  4.4518833E-11  4.5770453E-11   0.000000       0.000000    
  4.5770453E-11  4.7057254E-11   0.000000       0.000000    
  4.7057254E-11  4.8380237E-11   0.000000       0.000000    
  4.8380237E-11  4.9740413E-11   0.000000       0.000000    
  4.9740413E-11  5.1138833E-11   0.000000       0.000000    
  5.1138833E-11  5.2576561E-11   0.000000       0.000000    
  5.2576561E-11  5.4054719E-11   0.000000       0.000000    
  5.4054719E-11  5.5574424E-11   0.000000       0.000000    
  5.5574424E-11  5.7136858E-11   0.000000       0.000000    
  5.7136858E-11  5.8743226E-11   0.000000       0.000000    
  5.8743226E-11  6.0394745E-11   0.000000       0.000000    
  6.0394745E-11  6.2092706E-11   0.000000       0.000000    
  6.2092706E-11  6.3838393E-11   0.000000       0.000000    
  6.3838393E-11  6.5633166E-11   0.000000       0.000000    
  6.5633166E-11  6.7478405E-11   0.000000       0.000000    
  6.7478405E-11  6.9375505E-11   0.000000       0.000000    
  6.9375505E-11  7.1325952E-11   0.000000       0.000000    
  7.1325952E-11  7.3331237E-11   0.000000       0.000000    
  7.3331237E-11  7.5392886E-11   0.000000       0.000000    
  7.5392886E-11  7.7512503E-11   0.000000       0.000000    
  7.7512503E-11  7.9691719E-11   0.000000       0.000000    
  7.9691719E-11  8.1932183E-11   0.000000       0.000000    
  8.1932183E-11  8.4235660E-11   0.000000       0.000000    
