 # Detector n:            1   FLUX1     (integrated over solid angle)
 # N. of energy intervals         260
  1.000E-14  2.000E-13  0.000E+00  0.000E+00
  2.000E-13  2.930E-13  0.000E+00  0.000E+00
  2.930E-13  4.292E-13  0.000E+00  0.000E+00
  4.292E-13  6.287E-13  0.000E+00  0.000E+00
  6.287E-13  9.209E-13  0.000E+00  0.000E+00
  9.209E-13  1.349E-12  0.000E+00  0.000E+00
  1.349E-12  1.976E-12  0.000E+00  0.000E+00
  1.976E-12  2.895E-12  0.000E+00  0.000E+00
  2.895E-12  4.240E-12  0.000E+00  0.000E+00
  4.240E-12  6.212E-12  0.000E+00  0.000E+00
  6.212E-12  9.099E-12  0.000E+00  0.000E+00
  9.099E-12  1.333E-11  0.000E+00  0.000E+00
  1.333E-11  1.953E-11  0.000E+00  0.000E+00
  1.953E-11  2.860E-11  0.000E+00  0.000E+00
  2.860E-11  4.190E-11  0.000E+00  0.000E+00
  4.190E-11  6.138E-11  0.000E+00  0.000E+00
  6.138E-11  8.991E-11  0.000E+00  0.000E+00
  8.991E-11  1.317E-10  0.000E+00  0.000E+00
  1.317E-10  1.929E-10  0.000E+00  0.000E+00
  1.929E-10  2.826E-10  0.000E+00  0.000E+00
  2.826E-10  4.140E-10  0.000E+00  0.000E+00
  4.140E-10  5.316E-10  0.000E+00  0.000E+00
  5.316E-10  6.251E-10  0.000E+00  0.000E+00
  6.251E-10  6.826E-10  0.000E+00  0.000E+00
  6.826E-10  8.337E-10  0.000E+00  0.000E+00
  8.337E-10  8.764E-10  0.000E+00  0.000E+00
  8.764E-10  1.125E-09  0.000E+00  0.000E+00
  1.125E-09  1.445E-09  0.000E+00  0.000E+00
  1.445E-09  1.855E-09  0.000E+00  0.000E+00
  1.855E-09  2.382E-09  0.000E+00  0.000E+00
  2.382E-09  3.059E-09  0.000E+00  0.000E+00
  3.059E-09  3.928E-09  0.000E+00  0.000E+00
  3.928E-09  5.043E-09  0.000E+00  0.000E+00
  5.043E-09  6.476E-09  0.000E+00  0.000E+00
  6.476E-09  8.315E-09  0.000E+00  0.000E+00
  8.315E-09  1.068E-08  0.000E+00  0.000E+00
  1.068E-08  1.371E-08  0.000E+00  0.000E+00
  1.371E-08  1.760E-08  0.000E+00  0.000E+00
  1.760E-08  2.260E-08  0.000E+00  0.000E+00
  2.260E-08  2.902E-08  0.000E+00  0.000E+00
  2.902E-08  3.727E-08  0.000E+00  0.000E+00
  3.727E-08  4.785E-08  0.000E+00  0.000E+00
  4.785E-08  6.144E-08  0.000E+00  0.000E+00
  6.144E-08  7.889E-08  0.000E+00  0.000E+00
  7.889E-08  1.013E-07  0.000E+00  0.000E+00
  1.013E-07  1.301E-07  0.000E+00  0.000E+00
  1.301E-07  1.670E-07  0.000E+00  0.000E+00
  1.670E-07  2.145E-07  0.000E+00  0.000E+00
  2.145E-07  2.754E-07  0.000E+00  0.000E+00
  2.754E-07  3.536E-07  0.000E+00  0.000E+00
  3.536E-07  4.540E-07  0.000E+00  0.000E+00
  4.540E-07  5.829E-07  0.000E+00  0.000E+00
  5.829E-07  7.485E-07  0.000E+00  0.000E+00
  7.485E-07  9.611E-07  0.000E+00  0.000E+00
  9.611E-07  1.234E-06  0.000E+00  0.000E+00
  1.234E-06  1.364E-06  0.000E+00  0.000E+00
  1.364E-06  1.507E-06  0.000E+00  0.000E+00
  1.507E-06  1.585E-06  0.000E+00  0.000E+00
  1.585E-06  1.666E-06  0.000E+00  0.000E+00
  1.666E-06  1.841E-06  0.000E+00  0.000E+00
  1.841E-06  2.035E-06  0.000E+00  0.000E+00
  2.035E-06  2.249E-06  0.000E+00  0.000E+00
  2.249E-06  2.485E-06  0.000E+00  0.000E+00
  2.485E-06  2.613E-06  0.000E+00  0.000E+00
  2.613E-06  2.747E-06  0.000E+00  0.000E+00
  2.747E-06  2.863E-06  0.000E+00  0.000E+00
  2.863E-06  3.035E-06  0.000E+00  0.000E+00
  3.035E-06  3.355E-06  0.000E+00  0.000E+00
  3.355E-06  3.707E-06  0.000E+00  0.000E+00
  3.707E-06  4.097E-06  0.000E+00  0.000E+00
  4.097E-06  4.307E-06  0.000E+00  0.000E+00
  4.307E-06  4.528E-06  0.000E+00  0.000E+00
  4.528E-06  5.005E-06  0.000E+00  0.000E+00
  5.005E-06  5.531E-06  0.000E+00  0.000E+00
  5.531E-06  6.267E-06  0.000E+00  0.000E+00
  6.267E-06  7.102E-06  0.000E+00  0.000E+00
  7.102E-06  8.047E-06  0.000E+00  0.000E+00
  8.047E-06  9.119E-06  0.000E+00  0.000E+00
  9.119E-06  1.033E-05  0.000E+00  0.000E+00
  1.033E-05  1.171E-05  0.000E+00  0.000E+00
  1.171E-05  1.327E-05  0.000E+00  0.000E+00
  1.327E-05  1.503E-05  0.000E+00  0.000E+00
  1.503E-05  1.704E-05  0.000E+00  0.000E+00
  1.704E-05  1.930E-05  0.000E+00  0.000E+00
  1.930E-05  2.133E-05  0.000E+00  0.000E+00
  2.133E-05  2.187E-05  0.000E+00  0.000E+00
  2.187E-05  2.358E-05  0.000E+00  0.000E+00
  2.358E-05  2.418E-05  0.000E+00  0.000E+00
  2.418E-05  2.479E-05  0.000E+00  0.000E+00
  2.479E-05  2.606E-05  0.000E+00  0.000E+00
  2.606E-05  2.809E-05  0.000E+00  0.000E+00
  2.809E-05  3.183E-05  0.000E+00  0.000E+00
  3.183E-05  3.431E-05  0.000E+00  0.000E+00
  3.431E-05  3.518E-05  0.000E+00  0.000E+00
  3.518E-05  3.607E-05  0.000E+00  0.000E+00
  3.607E-05  4.087E-05  0.000E+00  0.000E+00
  4.087E-05  4.631E-05  0.000E+00  0.000E+00
  4.631E-05  5.248E-05  0.000E+00  0.000E+00
  5.248E-05  5.656E-05  0.000E+00  0.000E+00
  5.656E-05  5.946E-05  0.000E+00  0.000E+00
  5.946E-05  6.251E-05  0.000E+00  0.000E+00
  6.251E-05  6.738E-05  0.000E+00  0.000E+00
  6.738E-05  7.635E-05  0.000E+00  0.000E+00
  7.635E-05  8.652E-05  0.000E+00  0.000E+00
  8.652E-05  9.804E-05  0.000E+00  0.000E+00
  9.804E-05  1.111E-04  0.000E+00  0.000E+00
  1.111E-04  1.168E-04  0.000E+00  0.000E+00
  1.168E-04  1.228E-04  0.000E+00  0.000E+00
  1.228E-04  1.291E-04  0.000E+00  0.000E+00
  1.291E-04  1.357E-04  0.000E+00  0.000E+00
  1.357E-04  1.426E-04  0.000E+00  0.000E+00
  1.426E-04  1.500E-04  0.000E+00  0.000E+00
  1.500E-04  1.576E-04  0.000E+00  0.000E+00
  1.576E-04  1.616E-04  0.000E+00  0.000E+00
  1.616E-04  1.657E-04  0.000E+00  0.000E+00
  1.657E-04  1.699E-04  0.000E+00  0.000E+00
  1.699E-04  1.742E-04  0.000E+00  0.000E+00
  1.742E-04  1.832E-04  0.000E+00  0.000E+00
  1.832E-04  1.925E-04  0.000E+00  0.000E+00
  1.925E-04  2.024E-04  0.000E+00  0.000E+00
  2.024E-04  2.128E-04  0.000E+00  0.000E+00
  2.128E-04  2.237E-04  0.000E+00  0.000E+00
  2.237E-04  2.352E-04  0.000E+00  0.000E+00
  2.352E-04  2.472E-04  0.000E+00  0.000E+00
  2.472E-04  2.599E-04  0.000E+00  0.000E+00
  2.599E-04  2.732E-04  0.000E+00  0.000E+00
  2.732E-04  2.802E-04  0.000E+00  0.000E+00
  2.802E-04  2.872E-04  0.000E+00  0.000E+00
  2.872E-04  2.945E-04  0.000E+00  0.000E+00
  2.945E-04  3.020E-04  0.000E+00  0.000E+00
  3.020E-04  3.096E-04  0.000E+00  0.000E+00
  3.096E-04  3.175E-04  0.000E+00  0.000E+00
  3.175E-04  3.337E-04  0.000E+00  0.000E+00
  3.337E-04  3.508E-04  0.000E+00  0.000E+00
  3.508E-04  3.688E-04  0.000E+00  0.000E+00
  3.688E-04  3.877E-04  0.000E+00  0.000E+00
  3.877E-04  4.076E-04  0.000E+00  0.000E+00
  4.076E-04  4.285E-04  0.000E+00  0.000E+00
  4.285E-04  4.505E-04  0.000E+00  0.000E+00
  4.505E-04  4.736E-04  0.000E+00  0.000E+00
  4.736E-04  4.979E-04  0.000E+00  0.000E+00
  4.979E-04  5.105E-04  0.000E+00  0.000E+00
  5.105E-04  5.234E-04  0.000E+00  0.000E+00
  5.234E-04  5.366E-04  0.000E+00  0.000E+00
  5.366E-04  5.502E-04  0.000E+00  0.000E+00
  5.502E-04  5.784E-04  0.000E+00  0.000E+00
  5.784E-04  6.081E-04  0.000E+00  0.000E+00
  6.081E-04  6.393E-04  0.000E+00  0.000E+00
  6.393E-04  6.721E-04  0.000E+00  0.000E+00
  6.721E-04  7.065E-04  0.000E+00  0.000E+00
  7.065E-04  7.427E-04  0.000E+00  0.000E+00
  7.427E-04  7.808E-04  0.000E+00  0.000E+00
  7.808E-04  8.209E-04  0.000E+00  0.000E+00
  8.209E-04  8.629E-04  0.000E+00  0.000E+00
  8.629E-04  9.072E-04  0.000E+00  0.000E+00
  9.072E-04  9.537E-04  0.000E+00  0.000E+00
  9.537E-04  9.616E-04  0.000E+00  0.000E+00
  9.616E-04  9.778E-04  0.000E+00  0.000E+00
  9.778E-04  1.003E-03  0.000E+00  0.000E+00
  1.003E-03  1.054E-03  0.000E+00  0.000E+00
  1.054E-03  1.108E-03  0.000E+00  0.000E+00
  1.108E-03  1.165E-03  0.000E+00  0.000E+00
  1.165E-03  1.194E-03  0.000E+00  0.000E+00
  1.194E-03  1.225E-03  0.000E+00  0.000E+00
  1.225E-03  1.287E-03  0.000E+00  0.000E+00
  1.287E-03  1.353E-03  0.000E+00  0.000E+00
  1.353E-03  1.423E-03  0.000E+00  0.000E+00
  1.423E-03  1.496E-03  0.000E+00  0.000E+00
  1.496E-03  1.534E-03  0.000E+00  0.000E+00
  1.534E-03  1.572E-03  0.000E+00  0.000E+00
  1.572E-03  1.612E-03  0.000E+00  0.000E+00
  1.612E-03  1.653E-03  0.000E+00  0.000E+00
  1.653E-03  1.738E-03  0.000E+00  0.000E+00
  1.738E-03  1.827E-03  0.000E+00  0.000E+00
  1.827E-03  1.873E-03  0.000E+00  0.000E+00
  1.873E-03  1.920E-03  0.000E+00  0.000E+00
  1.920E-03  1.969E-03  0.000E+00  0.000E+00
  1.969E-03  2.019E-03  0.000E+00  0.000E+00
  2.019E-03  2.122E-03  0.000E+00  0.000E+00
  2.122E-03  2.231E-03  0.000E+00  0.000E+00
  2.231E-03  2.269E-03  0.000E+00  0.000E+00
  2.269E-03  2.307E-03  0.000E+00  0.000E+00
  2.307E-03  2.346E-03  0.000E+00  0.000E+00
  2.346E-03  2.365E-03  0.000E+00  0.000E+00
  2.365E-03  2.385E-03  0.000E+00  0.000E+00
  2.385E-03  2.425E-03  0.000E+00  0.000E+00
  2.425E-03  2.466E-03  0.000E+00  0.000E+00
  2.466E-03  2.592E-03  0.000E+00  0.000E+00
  2.592E-03  2.725E-03  0.000E+00  0.000E+00
  2.725E-03  2.865E-03  0.000E+00  0.000E+00
  2.865E-03  3.012E-03  0.000E+00  0.000E+00
  3.012E-03  3.088E-03  0.000E+00  0.000E+00
  3.088E-03  3.166E-03  0.000E+00  0.000E+00
  3.166E-03  3.247E-03  0.000E+00  0.000E+00
  3.247E-03  3.329E-03  0.000E+00  0.000E+00
  3.329E-03  3.499E-03  0.000E+00  0.000E+00
  3.499E-03  3.679E-03  0.000E+00  0.000E+00
  3.679E-03  3.867E-03  0.000E+00  0.000E+00
  3.867E-03  4.066E-03  0.000E+00  0.000E+00
  4.066E-03  4.274E-03  0.000E+00  0.000E+00
  4.274E-03  4.493E-03  0.000E+00  0.000E+00
  4.493E-03  4.607E-03  0.000E+00  0.000E+00
  4.607E-03  4.724E-03  0.000E+00  0.000E+00
  4.724E-03  4.843E-03  0.000E+00  0.000E+00
  4.843E-03  4.966E-03  0.000E+00  0.000E+00
  4.966E-03  5.220E-03  0.000E+00  0.000E+00
  5.220E-03  5.488E-03  0.000E+00  0.000E+00
  5.488E-03  5.770E-03  0.000E+00  0.000E+00
  5.770E-03  5.916E-03  0.000E+00  0.000E+00
  5.916E-03  6.065E-03  0.000E+00  0.000E+00
  6.065E-03  6.219E-03  0.000E+00  0.000E+00
  6.219E-03  6.376E-03  0.000E+00  0.000E+00
  6.376E-03  6.538E-03  0.000E+00  0.000E+00
  6.538E-03  6.592E-03  0.000E+00  0.000E+00
  6.592E-03  6.648E-03  0.000E+00  0.000E+00
  6.648E-03  6.703E-03  0.000E+00  0.000E+00
  6.703E-03  6.873E-03  0.000E+00  0.000E+00
  6.873E-03  7.047E-03  0.000E+00  0.000E+00
  7.047E-03  7.225E-03  0.000E+00  0.000E+00
  7.225E-03  7.408E-03  0.000E+00  0.000E+00
  7.408E-03  7.596E-03  0.000E+00  0.000E+00
  7.596E-03  7.788E-03  0.000E+00  0.000E+00
  7.788E-03  7.985E-03  0.000E+00  0.000E+00
  7.985E-03  8.187E-03  0.000E+00  0.000E+00
  8.187E-03  8.395E-03  0.000E+00  0.000E+00
  8.395E-03  8.607E-03  0.000E+00  0.000E+00
  8.607E-03  8.825E-03  0.000E+00  0.000E+00
  8.825E-03  9.048E-03  0.000E+00  0.000E+00
  9.048E-03  9.277E-03  0.000E+00  0.000E+00
  9.277E-03  9.512E-03  0.000E+00  0.000E+00
  9.512E-03  9.753E-03  0.000E+00  0.000E+00
  9.753E-03  1.000E-02  0.000E+00  0.000E+00
  1.000E-02  1.025E-02  0.000E+00  0.000E+00
  1.025E-02  1.051E-02  0.000E+00  0.000E+00
  1.051E-02  1.078E-02  0.000E+00  0.000E+00
  1.078E-02  1.105E-02  0.000E+00  0.000E+00
  1.105E-02  1.133E-02  0.000E+00  0.000E+00
  1.133E-02  1.162E-02  0.000E+00  0.000E+00
  1.162E-02  1.191E-02  0.000E+00  0.000E+00
  1.191E-02  1.221E-02  0.000E+00  0.000E+00
  1.221E-02  1.252E-02  0.000E+00  0.000E+00
  1.252E-02  1.284E-02  0.000E+00  0.000E+00
  1.284E-02  1.317E-02  0.000E+00  0.000E+00
  1.317E-02  1.350E-02  0.000E+00  0.000E+00
  1.350E-02  1.384E-02  0.000E+00  0.000E+00
  1.384E-02  1.419E-02  2.898E+03  0.000E+00
  1.419E-02  1.455E-02  0.000E+00  0.000E+00
  1.455E-02  1.492E-02  0.000E+00  0.000E+00
  1.492E-02  1.530E-02  0.000E+00  0.000E+00
  1.530E-02  1.568E-02  0.000E+00  0.000E+00
  1.568E-02  1.608E-02  0.000E+00  0.000E+00
  1.608E-02  1.649E-02  0.000E+00  0.000E+00
  1.649E-02  1.690E-02  0.000E+00  0.000E+00
  1.690E-02  1.733E-02  0.000E+00  0.000E+00
  1.733E-02  1.777E-02  0.000E+00  0.000E+00
  1.777E-02  1.822E-02  0.000E+00  0.000E+00
  1.822E-02  1.868E-02  0.000E+00  0.000E+00
  1.868E-02  1.916E-02  0.000E+00  0.000E+00
  1.916E-02  1.964E-02  0.000E+00  0.000E+00
  1.964E-02  2.000E-02  0.000E+00  0.000E+00


 # Detector n:            2   FLUX2     (integrated over solid angle)
 # N. of energy intervals         260
  1.000E-14  2.000E-13  0.000E+00  0.000E+00
  2.000E-13  2.930E-13  0.000E+00  0.000E+00
  2.930E-13  4.292E-13  0.000E+00  0.000E+00
  4.292E-13  6.287E-13  0.000E+00  0.000E+00
  6.287E-13  9.209E-13  0.000E+00  0.000E+00
  9.209E-13  1.349E-12  0.000E+00  0.000E+00
  1.349E-12  1.976E-12  0.000E+00  0.000E+00
  1.976E-12  2.895E-12  0.000E+00  0.000E+00
  2.895E-12  4.240E-12  0.000E+00  0.000E+00
  4.240E-12  6.212E-12  0.000E+00  0.000E+00
  6.212E-12  9.099E-12  0.000E+00  0.000E+00
  9.099E-12  1.333E-11  0.000E+00  0.000E+00
  1.333E-11  1.953E-11  0.000E+00  0.000E+00
  1.953E-11  2.860E-11  0.000E+00  0.000E+00
  2.860E-11  4.190E-11  0.000E+00  0.000E+00
  4.190E-11  6.138E-11  0.000E+00  0.000E+00
  6.138E-11  8.991E-11  0.000E+00  0.000E+00
  8.991E-11  1.317E-10  0.000E+00  0.000E+00
  1.317E-10  1.929E-10  0.000E+00  0.000E+00
  1.929E-10  2.826E-10  0.000E+00  0.000E+00
  2.826E-10  4.140E-10  0.000E+00  0.000E+00
  4.140E-10  5.316E-10  0.000E+00  0.000E+00
  5.316E-10  6.251E-10  0.000E+00  0.000E+00
  6.251E-10  6.826E-10  0.000E+00  0.000E+00
  6.826E-10  8.337E-10  0.000E+00  0.000E+00
  8.337E-10  8.764E-10  0.000E+00  0.000E+00
  8.764E-10  1.125E-09  0.000E+00  0.000E+00
  1.125E-09  1.445E-09  0.000E+00  0.000E+00
  1.445E-09  1.855E-09  0.000E+00  0.000E+00
  1.855E-09  2.382E-09  0.000E+00  0.000E+00
  2.382E-09  3.059E-09  0.000E+00  0.000E+00
  3.059E-09  3.928E-09  0.000E+00  0.000E+00
  3.928E-09  5.043E-09  0.000E+00  0.000E+00
  5.043E-09  6.476E-09  0.000E+00  0.000E+00
  6.476E-09  8.315E-09  0.000E+00  0.000E+00
  8.315E-09  1.068E-08  0.000E+00  0.000E+00
  1.068E-08  1.371E-08  0.000E+00  0.000E+00
  1.371E-08  1.760E-08  0.000E+00  0.000E+00
  1.760E-08  2.260E-08  0.000E+00  0.000E+00
  2.260E-08  2.902E-08  0.000E+00  0.000E+00
  2.902E-08  3.727E-08  0.000E+00  0.000E+00
  3.727E-08  4.785E-08  0.000E+00  0.000E+00
  4.785E-08  6.144E-08  0.000E+00  0.000E+00
  6.144E-08  7.889E-08  0.000E+00  0.000E+00
  7.889E-08  1.013E-07  0.000E+00  0.000E+00
  1.013E-07  1.301E-07  0.000E+00  0.000E+00
  1.301E-07  1.670E-07  0.000E+00  0.000E+00
  1.670E-07  2.145E-07  0.000E+00  0.000E+00
  2.145E-07  2.754E-07  0.000E+00  0.000E+00
  2.754E-07  3.536E-07  0.000E+00  0.000E+00
  3.536E-07  4.540E-07  0.000E+00  0.000E+00
  4.540E-07  5.829E-07  0.000E+00  0.000E+00
  5.829E-07  7.485E-07  0.000E+00  0.000E+00
  7.485E-07  9.611E-07  0.000E+00  0.000E+00
  9.611E-07  1.234E-06  0.000E+00  0.000E+00
  1.234E-06  1.364E-06  0.000E+00  0.000E+00
  1.364E-06  1.507E-06  0.000E+00  0.000E+00
  1.507E-06  1.585E-06  0.000E+00  0.000E+00
  1.585E-06  1.666E-06  0.000E+00  0.000E+00
  1.666E-06  1.841E-06  0.000E+00  0.000E+00
  1.841E-06  2.035E-06  0.000E+00  0.000E+00
  2.035E-06  2.249E-06  0.000E+00  0.000E+00
  2.249E-06  2.485E-06  0.000E+00  0.000E+00
  2.485E-06  2.613E-06  0.000E+00  0.000E+00
  2.613E-06  2.747E-06  0.000E+00  0.000E+00
  2.747E-06  2.863E-06  0.000E+00  0.000E+00
  2.863E-06  3.035E-06  0.000E+00  0.000E+00
  3.035E-06  3.355E-06  0.000E+00  0.000E+00
  3.355E-06  3.707E-06  0.000E+00  0.000E+00
  3.707E-06  4.097E-06  0.000E+00  0.000E+00
  4.097E-06  4.307E-06  0.000E+00  0.000E+00
  4.307E-06  4.528E-06  0.000E+00  0.000E+00
  4.528E-06  5.005E-06  0.000E+00  0.000E+00
  5.005E-06  5.531E-06  0.000E+00  0.000E+00
  5.531E-06  6.267E-06  0.000E+00  0.000E+00
  6.267E-06  7.102E-06  0.000E+00  0.000E+00
  7.102E-06  8.047E-06  0.000E+00  0.000E+00
  8.047E-06  9.119E-06  0.000E+00  0.000E+00
  9.119E-06  1.033E-05  0.000E+00  0.000E+00
  1.033E-05  1.171E-05  0.000E+00  0.000E+00
  1.171E-05  1.327E-05  0.000E+00  0.000E+00
  1.327E-05  1.503E-05  0.000E+00  0.000E+00
  1.503E-05  1.704E-05  0.000E+00  0.000E+00
  1.704E-05  1.930E-05  0.000E+00  0.000E+00
  1.930E-05  2.133E-05  0.000E+00  0.000E+00
  2.133E-05  2.187E-05  0.000E+00  0.000E+00
  2.187E-05  2.358E-05  0.000E+00  0.000E+00
  2.358E-05  2.418E-05  0.000E+00  0.000E+00
  2.418E-05  2.479E-05  0.000E+00  0.000E+00
  2.479E-05  2.606E-05  0.000E+00  0.000E+00
  2.606E-05  2.809E-05  0.000E+00  0.000E+00
  2.809E-05  3.183E-05  0.000E+00  0.000E+00
  3.183E-05  3.431E-05  0.000E+00  0.000E+00
  3.431E-05  3.518E-05  0.000E+00  0.000E+00
  3.518E-05  3.607E-05  0.000E+00  0.000E+00
  3.607E-05  4.087E-05  0.000E+00  0.000E+00
  4.087E-05  4.631E-05  0.000E+00  0.000E+00
  4.631E-05  5.248E-05  0.000E+00  0.000E+00
  5.248E-05  5.656E-05  0.000E+00  0.000E+00
  5.656E-05  5.946E-05  0.000E+00  0.000E+00
  5.946E-05  6.251E-05  0.000E+00  0.000E+00
  6.251E-05  6.738E-05  0.000E+00  0.000E+00
  6.738E-05  7.635E-05  0.000E+00  0.000E+00
  7.635E-05  8.652E-05  0.000E+00  0.000E+00
  8.652E-05  9.804E-05  0.000E+00  0.000E+00
  9.804E-05  1.111E-04  0.000E+00  0.000E+00
  1.111E-04  1.168E-04  0.000E+00  0.000E+00
  1.168E-04  1.228E-04  0.000E+00  0.000E+00
  1.228E-04  1.291E-04  0.000E+00  0.000E+00
  1.291E-04  1.357E-04  0.000E+00  0.000E+00
  1.357E-04  1.426E-04  0.000E+00  0.000E+00
  1.426E-04  1.500E-04  0.000E+00  0.000E+00
  1.500E-04  1.576E-04  0.000E+00  0.000E+00
  1.576E-04  1.616E-04  0.000E+00  0.000E+00
  1.616E-04  1.657E-04  0.000E+00  0.000E+00
  1.657E-04  1.699E-04  0.000E+00  0.000E+00
  1.699E-04  1.742E-04  0.000E+00  0.000E+00
  1.742E-04  1.832E-04  0.000E+00  0.000E+00
  1.832E-04  1.925E-04  0.000E+00  0.000E+00
  1.925E-04  2.024E-04  0.000E+00  0.000E+00
  2.024E-04  2.128E-04  0.000E+00  0.000E+00
  2.128E-04  2.237E-04  0.000E+00  0.000E+00
  2.237E-04  2.352E-04  0.000E+00  0.000E+00
  2.352E-04  2.472E-04  0.000E+00  0.000E+00
  2.472E-04  2.599E-04  0.000E+00  0.000E+00
  2.599E-04  2.732E-04  0.000E+00  0.000E+00
  2.732E-04  2.802E-04  0.000E+00  0.000E+00
  2.802E-04  2.872E-04  0.000E+00  0.000E+00
  2.872E-04  2.945E-04  0.000E+00  0.000E+00
  2.945E-04  3.020E-04  0.000E+00  0.000E+00
  3.020E-04  3.096E-04  0.000E+00  0.000E+00
  3.096E-04  3.175E-04  0.000E+00  0.000E+00
  3.175E-04  3.337E-04  0.000E+00  0.000E+00
  3.337E-04  3.508E-04  0.000E+00  0.000E+00
  3.508E-04  3.688E-04  0.000E+00  0.000E+00
  3.688E-04  3.877E-04  0.000E+00  0.000E+00
  3.877E-04  4.076E-04  0.000E+00  0.000E+00
  4.076E-04  4.285E-04  0.000E+00  0.000E+00
  4.285E-04  4.505E-04  0.000E+00  0.000E+00
  4.505E-04  4.736E-04  0.000E+00  0.000E+00
  4.736E-04  4.979E-04  0.000E+00  0.000E+00
  4.979E-04  5.105E-04  0.000E+00  0.000E+00
  5.105E-04  5.234E-04  0.000E+00  0.000E+00
  5.234E-04  5.366E-04  0.000E+00  0.000E+00
  5.366E-04  5.502E-04  0.000E+00  0.000E+00
  5.502E-04  5.784E-04  0.000E+00  0.000E+00
  5.784E-04  6.081E-04  0.000E+00  0.000E+00
  6.081E-04  6.393E-04  0.000E+00  0.000E+00
  6.393E-04  6.721E-04  0.000E+00  0.000E+00
  6.721E-04  7.065E-04  0.000E+00  0.000E+00
  7.065E-04  7.427E-04  0.000E+00  0.000E+00
  7.427E-04  7.808E-04  0.000E+00  0.000E+00
  7.808E-04  8.209E-04  0.000E+00  0.000E+00
  8.209E-04  8.629E-04  0.000E+00  0.000E+00
  8.629E-04  9.072E-04  0.000E+00  0.000E+00
  9.072E-04  9.537E-04  0.000E+00  0.000E+00
  9.537E-04  9.616E-04  0.000E+00  0.000E+00
  9.616E-04  9.778E-04  0.000E+00  0.000E+00
  9.778E-04  1.003E-03  0.000E+00  0.000E+00
  1.003E-03  1.054E-03  0.000E+00  0.000E+00
  1.054E-03  1.108E-03  0.000E+00  0.000E+00
  1.108E-03  1.165E-03  0.000E+00  0.000E+00
  1.165E-03  1.194E-03  0.000E+00  0.000E+00
  1.194E-03  1.225E-03  0.000E+00  0.000E+00
  1.225E-03  1.287E-03  0.000E+00  0.000E+00
  1.287E-03  1.353E-03  0.000E+00  0.000E+00
  1.353E-03  1.423E-03  0.000E+00  0.000E+00
  1.423E-03  1.496E-03  0.000E+00  0.000E+00
  1.496E-03  1.534E-03  0.000E+00  0.000E+00
  1.534E-03  1.572E-03  0.000E+00  0.000E+00
  1.572E-03  1.612E-03  0.000E+00  0.000E+00
  1.612E-03  1.653E-03  0.000E+00  0.000E+00
  1.653E-03  1.738E-03  0.000E+00  0.000E+00
  1.738E-03  1.827E-03  0.000E+00  0.000E+00
  1.827E-03  1.873E-03  0.000E+00  0.000E+00
  1.873E-03  1.920E-03  0.000E+00  0.000E+00
  1.920E-03  1.969E-03  0.000E+00  0.000E+00
  1.969E-03  2.019E-03  0.000E+00  0.000E+00
  2.019E-03  2.122E-03  0.000E+00  0.000E+00
